%     Time (s)              Speed (m/s)		Steer Angle (rad)         Yaw Rate (rad/s)         Sideslip (rad)
%-------------------------------------------------------------------------------------------------------------------
   3.7276295e+01	   2.9939891e+01	  -1.0840554e-03	  -1.0589638e-02	   9.4445180e-05	
   3.7307555e+01	   2.9939141e+01	  -9.7564989e-04	   2.1819213e-03	  -3.0893818e-04	
   3.7338565e+01	   2.9933562e+01	  -8.6724435e-04	  -2.5362394e-03	   3.6699635e-06	
   3.7369714e+01	   2.9927959e+01	  -8.5373443e-04	  -6.5222795e-03	   3.4010371e-04	
   3.7401361e+01	   2.9922265e+01	  -8.4000851e-04	  -1.0719835e-03	   9.6539138e-04	
   3.7432766e+01	   2.9916615e+01	  -8.2638755e-04	  -2.6989453e-03	   1.7447821e-03	
   3.7463539e+01	   2.9911079e+01	  -8.1304071e-04	  -5.1393652e-03	   2.5498416e-03	
   3.7494728e+01	   2.9905468e+01	  -7.9951344e-04	  -1.0101550e-02	   3.2914383e-03	
   3.7526069e+01	   2.9907200e+01	  -7.8592024e-04	  -4.4885759e-03	   3.8981450e-03	
   3.7557873e+01	   2.9910470e+01	  -7.7212623e-04	  -1.3274061e-02	   3.9881007e-03	
   3.7588509e+01	   2.9913619e+01	  -7.5883881e-04	  -2.6989271e-03	   4.6431352e-03	
   3.7620058e+01	   2.9916863e+01	  -6.8223156e-04	  -8.2304993e-03	   4.4275919e-03	
   3.7650991e+01	   2.9920043e+01	  -6.0712009e-04	   3.1092152e-04	   4.5549888e-03	
   3.7682609e+01	   2.9923293e+01	  -5.3034531e-04	  -1.0719661e-03	   4.3833385e-03	
   3.7713741e+01	   2.9924728e+01	  -4.5475063e-04	   3.8088188e-03	   4.4006131e-03	
   3.7744820e+01	   2.9923929e+01	  -3.7928464e-04	   3.4834071e-03	   4.2627486e-03	
   3.7781353e+01	   2.9922990e+01	  -2.9057525e-04	  -3.5123206e-03	   3.9033321e-03	
   3.7808865e+01	   2.9922283e+01	  -2.2377065e-04	   8.8034472e-04	   3.9209763e-03	
   3.7838934e+01	   2.9921510e+01	  -1.5075714e-04	   4.3781776e-03	   3.9013777e-03	
   3.7869735e+01	   2.9920718e+01	  -7.5966196e-05	  -4.2443913e-03	   3.5170295e-03	
   3.7901020e+01	   2.9919992e+01	   0.0000000e+00	  -1.5063222e-02	   3.0651226e-03	
   3.7932317e+01	   2.9921601e+01	   3.2521663e-04	   3.1091229e-04	   3.3949282e-03	
   3.7964224e+01	   2.9923241e+01	   5.4202772e-04	  -1.7340730e-02	   2.7365844e-03	
   3.7994758e+01	   2.9924811e+01	   3.9971791e-04	   7.7131933e-03	   3.3583492e-03	
   3.8026048e+01	   2.9926419e+01	   2.5388462e-04	   6.8183848e-03	   3.1030072e-03	
   3.8057262e+01	   2.9928023e+01	   1.0840554e-04	   8.2011982e-03	   2.8961878e-03	
   3.8088536e+01	   2.9929631e+01	   1.3526601e-04	   7.1762462e-04	   2.4243461e-03	
   3.8119750e+01	   2.9934280e+01	   1.6207495e-04	   1.1454882e-02	   2.6689237e-03	
   3.8151016e+01	   2.9940709e+01	   1.8892855e-04	  -6.2778448e-03	   2.1643175e-03	
   3.8183480e+01	   2.9947384e+01	   2.1681109e-04	  -8.5553983e-03	   2.1217330e-03	
   3.8216322e+01	   2.9954136e+01	   3.2521663e-04	   7.2249810e-03	   2.6178198e-03	
   3.8245115e+01	   2.9960056e+01	   4.3362217e-04	   6.0048449e-03	   2.6038375e-03	
   3.8276404e+01	   2.9966489e+01	   4.5430630e-04	   1.4627033e-02	   2.8851107e-03	
   3.8307244e+01	   2.9970410e+01	   4.7469360e-04	   2.1004100e-03	   2.5358349e-03	
   3.8338497e+01	   2.9966394e+01	   4.9535392e-04	   3.7272345e-03	   2.6086728e-03	
   3.8369772e+01	   2.9962375e+01	   5.1602879e-04	  -1.0344761e-02	   2.2136535e-03	
   3.8401076e+01	   2.9958352e+01	   5.3672282e-04	   5.7607196e-03	   2.7180732e-03	
   3.8432284e+01	   2.9954341e+01	   5.5735340e-04	   3.1089831e-04	   2.9322167e-03	
   3.8463892e+01	   2.9950279e+01	   5.7824840e-04	   8.1196187e-03	   3.6173686e-03	
   3.8494747e+01	   2.9946314e+01	   5.9864561e-04	   2.3444304e-03	   3.8867372e-03	
   3.8526067e+01	   2.9942959e+01	   6.1935023e-04	   1.0071807e-02	   3.8829634e-03	
   3.8557630e+01	   2.9939715e+01	   6.4021548e-04	   2.2630906e-03	   3.2755069e-03	
   3.8588613e+01	   2.9936530e+01	   6.6069732e-04	   1.7311186e-02	   3.3566919e-03	
   3.8620207e+01	   2.9933283e+01	   6.8158306e-04	   6.3301499e-03	   2.2586770e-03	
   3.8651067e+01	   2.9930111e+01	   7.0198359e-04	  -3.7561556e-03	   1.1301733e-03	
   3.8682662e+01	   2.9926863e+01	   7.2286999e-04	   1.4138870e-02	   8.1684052e-04	
   3.8713519e+01	   2.9927166e+01	   7.4326853e-04	   1.3894846e-02	   1.0002574e-04	
   3.8744842e+01	   2.9931995e+01	   7.6397513e-04	  -9.9054790e-04	  -9.1081201e-04	
   3.8776487e+01	   2.9936875e+01	   7.8489459e-04	   8.6890101e-03	  -1.1945721e-03	
   3.8807305e+01	   2.9941626e+01	   8.0526735e-04	   1.7799186e-02	  -1.4822212e-03	
   3.8838536e+01	   2.9946442e+01	   8.2591313e-04	   8.8517014e-03	  -2.3194525e-03	
   3.8870275e+01	   2.9951336e+01	   8.4689473e-04	   5.0286724e-03	  -3.0130893e-03	
   3.8901058e+01	   2.9955103e+01	   8.6724435e-04	   7.3875705e-03	  -3.4587813e-03	
   3.8932290e+01	   2.9931024e+01	   1.1924610e-03	   2.8324689e-03	  -2.8022794e-03	
   3.8963907e+01	   2.9906647e+01	   1.4092721e-03	   7.5502484e-03	  -1.8593469e-03	
   3.8995268e+01	   2.9882468e+01	   1.6260832e-03	  -1.8039641e-03	  -1.3432031e-03	
   3.9026022e+01	   2.9858757e+01	   1.7344887e-03	   4.4593161e-03	  -6.2628715e-04	
   3.9057288e+01	   2.9834651e+01	   1.7886663e-03	  -1.6412866e-03	  -3.1662307e-04	
   3.9088583e+01	   2.9810523e+01	   1.8428942e-03	   9.2585336e-03	   5.0246852e-04	
   3.9120054e+01	   2.9789351e+01	   2.1681109e-03	   1.3569711e-02	   6.0238799e-04	
   3.9151281e+01	   2.9770091e+01	   2.4933275e-03	   1.6010038e-02	   3.5000562e-04	
   3.9183383e+01	   2.9750291e+01	   2.7101386e-03	   2.2436188e-02	   2.0823591e-04	
   3.9213525e+01	   2.9731699e+01	   3.1437608e-03	   1.2593721e-02	  -4.4078612e-04	
   3.9245371e+01	   2.9712057e+01	   3.2521663e-03	   1.5766124e-02	  -7.9781737e-04	
   3.9276042e+01	   2.9693139e+01	   3.3605719e-03	   2.1378804e-02	  -1.0646466e-03	
   3.9307294e+01	   2.9674238e+01	   3.3450897e-03	   2.5852699e-02	  -1.2465198e-03	
   3.9338537e+01	   2.9656573e+01	   3.3296119e-03	   2.1622865e-02	  -1.2721892e-03	
   3.9369897e+01	   2.9638841e+01	   3.3140762e-03	   2.6828836e-02	  -1.0133344e-03	
   3.9401857e+01	   2.9620771e+01	   3.2982433e-03	   1.7637059e-02	  -1.1863962e-03	
   3.9432263e+01	   2.9603578e+01	   3.2831802e-03	   2.2761680e-02	  -6.2191055e-04	
   3.9463921e+01	   2.9585679e+01	   3.2674969e-03	   1.8694528e-02	  -2.6310387e-04	
   3.9494867e+01	   2.9568181e+01	   3.2521663e-03	   2.7398276e-02	   4.7042627e-04	
   3.9526049e+01	   2.9554568e+01	   3.1437608e-03	   1.4708707e-02	   1.0656265e-04	
   3.9557675e+01	   2.9541563e+01	   2.8185441e-03	   2.1378860e-02	   2.3699343e-04	
   3.9589094e+01	   2.9528644e+01	   2.6017330e-03	   1.2593767e-02	  -9.9328025e-05	
   3.9619850e+01	   2.9515997e+01	   2.5478979e-03	   2.8130363e-02	   2.3598287e-04	
   3.9651026e+01	   2.9503178e+01	   2.4933275e-03	   8.2012076e-03	  -5.1545261e-04	
   3.9682281e+01	   2.9490326e+01	   2.3849220e-03	   1.6335536e-02	  -4.1799515e-04	
   3.9713800e+01	   2.9472045e+01	   2.2992570e-03	   2.1622842e-02	  -2.8724108e-04	
   3.9762053e+01	   2.9433602e+01	   2.1681109e-03	   4.0526964e-03	  -6.2824113e-04	
   3.9792093e+01	   2.9409669e+01	   1.9512998e-03	   1.9833253e-02	  -2.9937636e-05	
   3.9807171e+01	   2.9397656e+01	   1.8428942e-03	   1.6498183e-02	   9.2423210e-05	
   3.9839233e+01	   2.9372113e+01	   1.6260832e-03	   1.5928770e-02	   7.1228136e-04	
   3.9869786e+01	   2.9347771e+01	   1.5176776e-03	   1.8694443e-02	   1.4036033e-03	
   3.9901075e+01	   2.9322871e+01	   1.4634104e-03	   1.6660855e-02	   1.9447762e-03	
   3.9932309e+01	   2.9298790e+01	   1.4092385e-03	   9.8280439e-03	   1.8121136e-03	
   3.9964392e+01	   2.9274054e+01	   1.3535942e-03	   1.6091459e-02	   2.0806518e-03	
   3.9994777e+01	   2.9250627e+01	   1.3008949e-03	  -7.4980122e-03	   1.4340113e-03	
   4.0026049e+01	   2.9226517e+01	   1.2466571e-03	   1.0560079e-02	   1.8616129e-03	
   4.0057297e+01	   2.9202425e+01	   1.1924610e-03	   3.9225009e-04	   1.3871670e-03	
   4.0088932e+01	   2.9178034e+01	   9.7564989e-04	   3.9224768e-04	   1.2213664e-03	
   4.0119966e+01	   2.9161803e+01	   4.3362217e-04	   7.7129497e-03	   1.2828905e-03	
   4.0151141e+01	   2.9149785e+01	   3.8002373e-04	   1.5765624e-02	   1.3662844e-03	
   4.0183019e+01	   2.9137496e+01	   3.2521663e-04	   3.7271861e-03	   8.3045849e-04	
   4.0214190e+01	   2.9125480e+01	   2.5261709e-04	   2.1817108e-03	   5.6080058e-04	
   4.0244794e+01	   2.9113682e+01	   1.8133814e-04	   3.3204685e-03	   2.7231413e-04	
   4.0276108e+01	   2.9101610e+01	   1.0840554e-04	   9.8276410e-03	   1.4108665e-04	
   4.0307296e+01	   2.9091462e+01	  -5.3626091e-05	   3.8898373e-03	  -3.7069109e-04	
   4.0338706e+01	   2.9087426e+01	  -2.1681109e-04	   1.2918553e-02	  -4.2544847e-04	
   4.0370245e+01	   2.9083373e+01	  -4.3362217e-04	   2.8324222e-03	  -1.0684099e-03	
   4.0401395e+01	   2.9079370e+01	  -8.6724435e-04	  -1.2345630e-03	  -1.5225035e-03	
   4.0432875e+01	   2.9075325e+01	  -1.1924610e-03	  -1.3028804e-02	  -1.5568855e-03	
   4.0463666e+01	   2.9071369e+01	  -1.3008665e-03	   4.7032398e-03	  -5.7375275e-04	
   4.0494795e+01	   2.9067369e+01	  -1.4092721e-03	   6.3300452e-03	  -8.0437117e-05	
   4.0526054e+01	   2.9078753e+01	  -1.3861438e-03	   6.4113743e-03	   5.9451618e-04	
   4.0557936e+01	   2.9093502e+01	  -1.3625546e-03	   3.9711881e-03	   1.2517590e-03	
   4.0588954e+01	   2.9107851e+01	  -1.3396046e-03	   4.0525338e-03	   1.9665935e-03	
   4.0619817e+01	   2.9122128e+01	  -1.3167694e-03	  -3.9187715e-03	   2.1022905e-03	
   4.0651133e+01	   2.9136615e+01	  -1.2935989e-03	  -1.5387705e-02	   2.0752576e-03	
   4.0682588e+01	   2.9151166e+01	  -1.2703257e-03	   2.0190278e-03	   2.9345743e-03	
   4.0714015e+01	   2.9168225e+01	  -1.2470731e-03	  -4.9761901e-03	   3.1682078e-03	
   4.0744801e+01	   2.9188005e+01	  -1.2242948e-03	  -3.5934158e-03	   3.7980973e-03	
   4.0787826e+01	   2.9215649e+01	  -1.1924610e-03	  -4.6508339e-03	   4.5869155e-03	
   4.0807255e+01	   2.9228132e+01	  -9.7564989e-04	   5.9233631e-03	   5.2495620e-03	
   4.0855298e+01	   2.9258999e+01	  -6.5043326e-04	  -4.2441504e-03	   5.7112632e-03	
   4.0869711e+01	   2.9268259e+01	  -6.7050429e-04	  -1.1320775e-02	   5.7270580e-03	
   4.0901089e+01	   2.9289371e+01	  -7.1420016e-04	  -6.0336551e-03	   6.3263398e-03	
   4.0932448e+01	   2.9336921e+01	  -7.5786958e-04	  -1.2052892e-02	   4.7321500e-03	
   4.0964453e+01	   2.9385450e+01	  -8.0243859e-04	  -6.9284405e-03	   3.4481361e-03	
   4.0994797e+01	   2.9431460e+01	  -8.4469456e-04	   8.6076876e-03	   2.5542556e-03	
   4.1026078e+01	   2.9478891e+01	  -8.8825536e-04	  -9.6940046e-03	   1.1899084e-03	
   4.1057421e+01	   2.9526416e+01	  -9.3190249e-04	   1.3683191e-03	   8.3343428e-04	
   4.1088836e+01	   2.9574051e+01	  -9.7564989e-04	   4.4592337e-03	   2.3360158e-04	
   4.1120204e+01	   2.9617979e+01	  -1.4092721e-03	  -3.6747344e-03	   3.5378582e-04	
   4.1151408e+01	   2.9659680e+01	  -1.9512998e-03	  -8.2296812e-03	   1.1619704e-03	
   4.1182621e+01	   2.9701393e+01	  -3.1437608e-03	  -4.8134302e-03	   2.2104624e-03	
   4.1213565e+01	   2.9742746e+01	  -3.7941940e-03	  -1.6770094e-02	   2.7611439e-03	
   4.1245273e+01	   2.9785121e+01	  -4.3362217e-03	  -2.0836963e-02	   3.5158919e-03	
   4.1276184e+01	   2.9826430e+01	  -4.6614384e-03	  -1.2540465e-02	   4.6190932e-03	
   4.1307330e+01	   2.9863533e+01	  -4.7155569e-03	  -2.4009057e-02	   4.7534108e-03	
   4.1338573e+01	   2.9886016e+01	  -4.7698439e-03	  -1.5956604e-02	   4.2220121e-03	
   4.1370282e+01	   2.9908834e+01	  -4.7478854e-03	  -1.5387224e-02	   3.4553107e-03	
   4.1401987e+01	   2.9931649e+01	  -4.7259296e-03	  -1.9698066e-02	   2.5430851e-03	
   4.1432404e+01	   2.9953538e+01	  -4.7048658e-03	  -2.6042194e-02	   1.4730429e-03	
   4.1463591e+01	   2.9975980e+01	  -4.6832688e-03	  -3.0108810e-02	   4.2724824e-04	
   4.1495115e+01	   2.9998665e+01	  -4.6614384e-03	  -2.2137706e-02	  -2.7000228e-04	
   4.1526277e+01	   3.0035272e+01	  -4.7153539e-03	  -1.4898737e-02	  -6.1292958e-05	
   4.1557771e+01	   3.0074932e+01	  -4.7698439e-03	  -1.8721336e-02	  -9.3789142e-06	
   4.1588578e+01	   3.0113728e+01	  -4.7340534e-03	  -2.0591845e-02	   9.7102881e-05	
   4.1620373e+01	   3.0153767e+01	  -4.6971150e-03	  -2.0022678e-02	   4.9960799e-04	
   4.1651082e+01	   3.0192439e+01	  -4.6614384e-03	  -2.5553677e-02	   7.4946473e-04	
   4.1682387e+01	   3.0231861e+01	  -4.7698439e-03	  -2.3845878e-02	   1.2216013e-03	
   4.1713582e+01	   3.0270447e+01	  -4.5530328e-03	  -1.1970961e-02	   2.3476124e-03	
   4.1744892e+01	   3.0308266e+01	  -4.3362217e-03	  -3.4664262e-02	   2.9198179e-03	
   4.1776976e+01	   3.0347020e+01	  -4.2278162e-03	  -1.2703242e-02	   4.8384357e-03	
   4.1828712e+01	   3.0409512e+01	  -4.1194107e-03	  -1.0832490e-02	   6.1314134e-03	
   4.1847925e+01	   3.0432720e+01	  -3.9025996e-03	  -1.7827580e-02	   6.1973101e-03	
   4.1870364e+01	   3.0459824e+01	  -3.4689774e-03	  -1.4167318e-02	   6.6214800e-03	
   4.1901152e+01	   3.0496953e+01	  -2.4933275e-03	  -1.2784534e-02	   7.0664371e-03	
   4.1932429e+01	   3.0533125e+01	  -1.5176776e-03	  -2.1080944e-02	   6.4465071e-03	
   4.1964498e+01	   3.0570212e+01	  -5.4202772e-04	  -1.1483044e-02	   6.3403223e-03	
   4.1994825e+01	   3.0605285e+01	   3.2521663e-04	  -2.2951575e-02	   5.6398269e-03	
   4.2026083e+01	   3.0641434e+01	   6.5043326e-04	   4.9470511e-03	   6.2285476e-03	
   4.2057320e+01	   3.0677559e+01	   7.5883881e-04	  -3.2678734e-03	   5.7944965e-03	
   4.2088833e+01	   3.0714003e+01	   6.5043326e-04	   6.8176092e-03	   5.8913626e-03	
   4.2120122e+01	   3.0748638e+01	   2.1681109e-04	   6.4108467e-03	   5.6842520e-03	
   4.2151173e+01	   3.0782154e+01	   1.0840554e-04	   1.8561759e-03	   5.3583313e-03	
   4.2183107e+01	   3.0816624e+01	  -1.0840554e-04	  -8.3915224e-03	   4.8622289e-03	
   4.2214542e+01	   3.0850555e+01	  -1.4504700e-04	   6.4919064e-03	   5.2650074e-03	
   4.2244861e+01	   3.0883281e+01	  -1.8038761e-04	   6.1665311e-03	   5.5116598e-03	
   4.2276109e+01	   3.0917010e+01	  -2.1681109e-04	  -3.9182005e-03	   5.4842904e-03	
   4.2307791e+01	   3.0949006e+01	  -6.5043326e-04	  -1.1806909e-02	   5.3207044e-03	
   4.2338608e+01	   3.0973558e+01	  -1.4092721e-03	  -9.5296461e-03	   4.8405478e-03	
   4.2369859e+01	   3.0998456e+01	  -1.9512998e-03	  -4.9753086e-03	   4.4182066e-03	
   4.2401483e+01	   3.1023651e+01	  -2.8185441e-03	  -7.8216131e-03	   3.7760346e-03	
   4.2432865e+01	   3.1048653e+01	  -3.2521663e-03	  -9.7734784e-03	   3.0437616e-03	
   4.2463682e+01	   3.1073206e+01	  -3.4689774e-03	  -1.5791707e-02	   2.1857252e-03	
   4.2494828e+01	   3.1098020e+01	  -3.3255617e-03	  -2.6445656e-02	   1.1875185e-03	
   4.2526097e+01	   3.1138359e+01	  -3.1815797e-03	  -1.1644301e-02	   1.8283691e-03	
   4.2557853e+01	   3.1182430e+01	  -3.0353552e-03	  -2.0102565e-02	   1.9885873e-03	
   4.2588632e+01	   3.1225145e+01	  -2.8185441e-03	  -1.4328387e-02	   2.5441220e-03	
   4.2619883e+01	   3.1268515e+01	  -2.7646106e-03	  -1.6117802e-02	   2.5449052e-03	
   4.2651446e+01	   3.1312318e+01	  -2.7101386e-03	  -6.3582608e-03	   2.8076151e-03	
   4.2682625e+01	   3.1355588e+01	  -1.9512998e-03	  -8.1476452e-03	   2.7408341e-03	
   4.2713868e+01	   3.1399660e+01	  -1.4092721e-03	  -6.6024070e-03	   2.7690018e-03	
   4.2744901e+01	   3.1444323e+01	  -1.0840554e-03	  -1.7094491e-02	   2.4553033e-03	
   4.2800573e+01	   3.1524445e+01	  -1.0357663e-03	   6.0856511e-03	   3.0514314e-03	
   4.2807155e+01	   3.1533918e+01	  -1.0300572e-03	   6.0856574e-03	   2.9891929e-03	
   4.2854429e+01	   3.1601955e+01	  -9.8905232e-04	   3.4016393e-03	   2.4663281e-03	
   4.2869723e+01	   3.1623966e+01	  -9.7578651e-04	   4.7030120e-03	   2.3585085e-03	
   4.2901124e+01	   3.1668724e+01	  -9.4854970e-04	   6.3622380e-04	   1.9665748e-03	
   4.2932440e+01	   3.1701722e+01	  -9.2138662e-04	  -2.5358930e-03	   2.1278167e-03	
   4.2964461e+01	   3.1735462e+01	  -8.9361203e-04	  -4.4066566e-03	   2.3315109e-03	
   4.2994860e+01	   3.1767493e+01	  -8.6724435e-04	  -1.5224530e-02	   2.2708217e-03	
   4.3026122e+01	   3.1800434e+01	  -6.5043326e-04	   3.0763827e-03	   3.5312759e-03	
   4.3057762e+01	   3.1833773e+01	  -4.3362217e-04	  -8.7990024e-03	   4.0519483e-03	
   4.3088780e+01	   3.1866456e+01	  -4.1822692e-04	  -3.5120245e-03	   5.0374707e-03	
   4.3119843e+01	   3.1896638e+01	  -4.0280934e-04	   7.1759188e-04	   5.4748973e-03	
   4.3151149e+01	   3.1925602e+01	  -3.8727114e-04	  -7.2537036e-03	   5.2772941e-03	
   4.3183550e+01	   3.1955580e+01	  -3.7118946e-04	  -2.7800258e-03	   5.4287663e-03	
   4.3213602e+01	   3.1983384e+01	  -3.5627367e-04	  -5.7896382e-03	   5.2350472e-03	
   4.3244874e+01	   3.2012317e+01	  -3.4075234e-04	  -6.3589982e-03	   4.8443411e-03	
   4.3276175e+01	   3.2041276e+01	  -3.2521663e-04	  -3.4307545e-03	   4.5507960e-03	
   4.3307606e+01	   3.2072115e+01	  -3.0705350e-04	  -1.7713232e-04	   4.1982516e-03	
   4.3338999e+01	   3.2108422e+01	  -2.8891233e-04	   7.5501265e-03	   3.7628053e-03	
   4.3369845e+01	   3.2144096e+01	  -2.7108725e-04	  -6.6517444e-04	   2.8953176e-03	
   4.3401459e+01	   3.2180658e+01	  -2.5281837e-04	   2.5070542e-03	   2.3284336e-03	
   4.3432931e+01	   3.2217056e+01	  -2.3463154e-04	   1.3894527e-02	   2.1361622e-03	
   4.3463769e+01	   3.2252721e+01	  -2.1681109e-04	   3.2390935e-03	   1.3684774e-03	
   4.3494852e+01	   3.2288670e+01	  -1.9284093e-04	   2.3443699e-03	   8.6764615e-04	
   4.3526117e+01	   3.2326170e+01	  -1.6873041e-04	  -5.2201352e-03	   1.5472980e-03	
   4.3557839e+01	   3.2364487e+01	  -1.4426747e-04	   1.6123138e-03	   2.9110261e-03	
   4.3589025e+01	   3.2402156e+01	  -1.2021788e-04	   1.3569021e-02	   4.3956740e-03	
   4.3619843e+01	   3.2439380e+01	  -9.6452081e-05	  -2.4546066e-03	   4.8493783e-03	
   4.3651150e+01	   3.2477196e+01	  -7.2309178e-05	  -6.8468944e-03	   5.5928179e-03	
   4.3682707e+01	   3.2515313e+01	  -4.7973483e-05	  -3.5933632e-03	   6.5534273e-03	
   4.3713832e+01	   3.2551131e+01	  -2.3970933e-05	  -2.4546246e-03	   6.7196633e-03	
   4.3744916e+01	   3.2584683e+01	   0.0000000e+00	  -4.4881189e-03	   5.8945833e-03	
   4.3776173e+01	   3.2618422e+01	   1.0840554e-04	   7.7941198e-03	   5.4572511e-03	
   4.3808006e+01	   3.2652783e+01	   1.8203439e-04	   9.5836400e-03	   4.6673234e-03	
   4.3839059e+01	   3.2686301e+01	   2.5385912e-04	  -1.1971551e-02	   3.1681135e-03	
   4.3869910e+01	   3.2719602e+01	   3.2521663e-04	   2.2955653e-04	   2.5972897e-03	
   4.3901318e+01	   3.2753267e+01	   1.1924610e-03	   7.5503910e-03	   1.9223864e-03	
   4.3932464e+01	   3.2781282e+01	   2.0597053e-03	   5.1101720e-03	   2.0300540e-03	
   4.3964487e+01	   3.2810086e+01	   2.7101386e-03	   8.5266865e-03	   2.3021483e-03	
   4.3994856e+01	   3.2837403e+01	   3.2521663e-03	   7.1764138e-04	   2.2595656e-03	
   4.4026149e+01	   3.2865551e+01	   3.5773829e-03	   8.6080778e-03	   2.6018903e-03	
   4.4057795e+01	   3.2894016e+01	   3.5044232e-03	   6.1677140e-03	   2.6554390e-03	
   4.4088747e+01	   3.2921857e+01	   3.4330635e-03	   1.3081937e-02	   2.9602121e-03	
   4.4120190e+01	   3.2954810e+01	   3.3605719e-03	   5.5982630e-03	   3.0524202e-03	
   4.4151510e+01	   3.2990226e+01	   3.2521663e-03	   1.2919145e-02	   3.6424085e-03	
   4.4182779e+01	   3.3025585e+01	   2.7101386e-03	   1.5522048e-02	   4.1037588e-03	
   4.4213633e+01	   3.3060475e+01	   2.6886785e-03	   1.9345118e-02	   4.7046730e-03	
   4.4245323e+01	   3.3096310e+01	   2.6666370e-03	   1.1048157e-02	   5.2144601e-03	
   4.4276227e+01	   3.3131256e+01	   2.6451421e-03	   7.0623617e-03	   5.8227233e-03	
   4.4307767e+01	   3.3165525e+01	   2.6232049e-03	   1.4497062e-03	   6.1311295e-03	
   4.4338638e+01	   3.3194880e+01	   2.6017330e-03	   3.8086519e-03	   5.8323199e-03	
   4.4369875e+01	   3.3224584e+01	   2.3849220e-03	  -1.0719156e-03	   5.3345238e-03	
   4.4401147e+01	   3.3254321e+01	   1.8428942e-03	   8.4451753e-03	   5.2231760e-03	
